N,time[ms]
10,0.01000
11,0.01100
12,0.01300
13,0.01600
14,0.02000
15,0.02400
16,0.02900
17,0.03400
18,0.04100
19,0.04700
20,0.05500
21,0.06400
22,0.07200
23,0.08300
24,0.09300
25,0.07800
26,0.08700
27,0.09700
28,0.10700
29,0.11900
30,0.13200
31,0.15200
32,0.15800
33,0.17400
34,0.19000
35,0.20800
36,0.22400
37,0.24300
38,0.26300
39,0.28400
40,0.30600
41,0.32800
42,0.35400
43,0.37900
44,0.40500
45,0.43700
46,0.46000
47,0.48900
48,0.52100
49,0.55400
50,0.59300
51,0.62300
52,0.57600
53,0.55500
54,0.54500
55,0.62200
56,0.60100
57,0.64300
58,0.73300
59,0.71300
60,0.75300
61,0.79000
62,0.83600
63,0.88600
64,0.91500
65,0.96800
66,1.09400
67,1.05000
68,1.11600
69,1.17600
70,1.27800
71,1.29600
72,1.31800
73,1.40300
74,1.48400
75,1.49100
76,1.60200
77,1.62200
78,1.67100
79,1.70900
80,1.80100
81,1.94500
82,1.95700
83,2.03300
84,2.12600
85,2.27100
86,2.26000
87,2.31900
88,2.48900
89,2.41400
90,2.52600
91,2.64900
92,2.79500
93,2.95400
94,3.04000
95,2.92900
96,3.06500
97,3.27800
98,3.35600
99,3.38200
100,3.54700
101,3.73700
102,3.74900
103,3.83900
104,3.86000
105,4.27500
106,4.30200
107,4.32100
108,4.29700
109,4.73000
110,4.87300
111,4.86600
112,5.00400
113,5.30200
114,5.10200
115,5.50400
116,5.63400
117,5.57500
118,5.66800
119,6.04700
120,5.89300
121,6.17600
122,6.05600
123,6.65400
124,6.67900
125,6.60400
126,7.34800
127,6.96600
128,7.75300
129,7.48600
130,7.58200
131,7.79400
132,8.15300
133,8.08400
134,8.32800
135,8.72900
136,8.65500
137,9.06900
138,9.29400
139,9.56200
140,9.56200
141,9.66400
142,10.01000
143,10.06900
144,10.40300
145,10.40900
146,10.72800
147,10.98000
148,11.25400
149,11.73700
150,11.62800
151,11.97300
152,12.28000
153,12.62500
154,12.50800
155,12.48300
156,13.10800
157,13.48700
158,13.73700
159,14.06000
160,14.32200
161,14.18500
162,14.80600
163,14.91700
164,15.36800
165,15.57500
166,15.72800
167,16.00500
168,16.10200
169,16.39500
170,17.06900
171,17.27700
172,17.51700
173,17.59700
174,17.90500
175,18.68300
176,19.17300
177,19.16500
178,19.79400
179,19.86000
180,20.04200
181,20.71300
182,20.78300
183,21.09000
184,21.02100
185,21.48300
186,22.10700
187,22.36100
188,22.99100
189,23.14500
190,23.37700
191,23.76900
192,23.99700
193,24.77100
194,24.94700
195,25.04900
196,25.43800
197,26.48300
198,26.28300
199,27.10400
200,27.02200
201,27.32300
202,28.31000
203,27.93100
204,28.99600
205,28.81200
206,29.98400
207,30.03400
208,30.34900
209,31.21600
210,31.46400
211,31.53200
212,31.96400
213,31.90400
214,32.89700
215,33.20800
216,34.24200
217,34.11300
218,35.16600
219,35.24200
220,35.45200
221,36.55100
222,36.54400
223,37.20200
224,37.62100
225,38.01700
226,38.41700
227,40.02600
228,40.04100
229,40.18800
230,40.46400
231,41.19500
232,41.66400
233,42.24400
234,43.12700
235,43.46000
236,44.24200
237,44.01100
238,44.93400
239,45.95400
240,45.68500
241,46.69800
242,48.10000
243,49.66200
244,48.24100
245,48.72400
246,49.55600
247,50.33200
248,50.89800
249,50.92800
250,52.82200
251,52.75600
252,53.36800
253,53.58700
254,54.80500
255,55.24700
256,55.35000
257,56.63100
258,56.96800
259,57.97000
260,58.00300
261,58.65400
262,59.46400
263,59.66300
264,60.98800
265,61.18500
266,62.11700
267,63.18500
268,64.56100
269,64.19600
270,65.27100
271,65.70000
272,65.96400
273,67.37600
274,67.63700
275,68.21800
276,69.17100
277,69.87000
278,72.11400
279,71.55700
280,72.54700
281,73.95800
282,73.68300
283,75.66900
284,75.47200
285,76.44600
286,76.79300
287,77.82300
288,78.93400
289,79.36600
290,80.05300
291,80.80200
292,81.83700
293,83.08000
294,83.47500
295,84.69400
296,85.55300
297,86.24000
298,86.72300
299,87.63500
300,89.08300
301,89.06500
302,89.98000
303,90.71300
304,91.80000
305,93.20400
306,93.33100
307,96.32800
308,96.10100
309,96.34500
310,97.98400
311,98.76300
312,99.13500
313,100.99400
314,101.38200
315,102.64900
316,104.98300
317,106.18600
318,104.78000
319,105.93200
320,106.37200
321,107.45700
322,108.98400
323,109.97000
324,110.89900
325,112.05300
326,113.16300
327,114.79900
328,114.96000
329,116.15700
330,117.14900
331,118.51500
332,119.27600
333,120.32900
334,121.73900
335,123.69300
336,123.44700
337,124.72000
338,124.91400
339,127.29000
340,127.99100
341,128.66600
342,131.90600
343,131.86200
344,132.28600
345,133.56800
346,134.45500
347,136.08700
348,136.68400
349,138.45200
350,139.06900
351,140.88300
352,141.24400
353,142.51900
354,143.70700
355,144.93300
356,146.62700
357,147.51400
358,151.75900
359,149.97300
360,151.42900
361,152.91200
362,153.38100
363,154.99600
364,156.70400
365,161.14000
366,167.60500
367,165.70300
368,172.53300
369,170.25900
370,172.19100
371,167.60100
372,177.39600
373,175.57200
374,171.70400
375,175.77400
376,179.65200
377,173.48400
378,181.85900
379,181.30800
380,194.57200
381,195.84600
382,201.72000
383,197.07800
384,194.59000
385,187.16500
386,200.59200
387,207.09200
388,200.17200
389,212.74600
390,209.78100
391,205.82300
392,207.00000
393,212.38200
394,208.35900
395,201.09200
396,204.86900
397,208.18400
398,208.88100
399,209.51800
400,211.97900
401,213.94600
402,220.24500
403,220.33800
404,219.55700
405,218.78600
406,222.75600
407,224.59300
408,227.03100
409,226.10500
410,230.36600
411,234.58200
412,241.30300
413,246.12000
414,255.91700
415,260.73800
416,251.25700
417,250.62500
418,250.11100
419,252.10200
420,253.44900
421,264.00300
422,265.57800
423,281.45200
424,266.00800
425,297.55900
426,264.10800
427,276.39200
428,299.97800
429,280.18400
430,265.79800
431,267.51400
432,290.02700
433,284.40700
434,272.21600
435,288.53400
436,282.04100
437,283.05100
438,292.44600
439,288.03800
440,285.91000
441,282.44200
442,285.05200
443,287.29200
444,288.23200
445,292.41800
446,304.49700
447,296.17200
448,302.47900
449,312.38600
450,306.22600
451,305.38600
452,322.11500
453,319.48500
454,318.65800
455,321.66900
456,316.76300
457,328.70800
458,321.92000
459,324.68400
460,322.69100
461,321.27700
462,326.18300
463,330.63400
464,324.34900
465,336.55000
466,339.57600
467,340.65200
468,334.50900
469,347.58700
470,339.85400
471,347.34100
472,351.17900
473,359.28900
474,360.12800
475,363.11700
476,357.64400
477,351.83200
478,363.31800
479,356.52000
480,364.67600
481,362.79800
482,361.88100
483,367.67100
484,401.65000
485,369.70500
486,374.06900
487,382.28900
488,381.28600
489,381.49900
490,384.98900
491,393.88400
492,392.06900
493,392.20300
494,394.97700
495,404.86200
496,415.33200
497,406.26900
498,407.04300
499,416.56200
